eta [a.u.] R [a.u.] T [MeV] R''/R [dless] chi [GeV^4]

0.10000000E+01 0.10000000E+01 0.10000000E+06 0.14986849E-01 0.50723743E-27 0.21496776E+00
0.11220184E+01 0.11221290E+01 0.89397809E+05 0.16309901E-01 0.12171975E-26 0.50434553E+00
0.12589254E+01 0.12594171E+01 0.79934223E+05 0.17390116E-01 0.29167135E-26 0.79352407E+00
0.14125375E+01 0.14137643E+01 0.71485549E+05 0.18225903E-01 0.69791842E-26 0.10825066E+01
0.15848931E+01 0.15873064E+01 0.63941891E+05 0.18815640E-01 0.16675440E-25 0.13712886E+01
0.17782794E+01 0.17824430E+01 0.57197769E+05 0.19123136E-01 0.39823897E-25 0.16600884E+01
0.19952623E+01 0.20018681E+01 0.51157289E+05 0.19090751E-01 0.95218058E-25 0.19492670E+01
0.22387211E+01 0.22486030E+01 0.45747578E+05 0.18713113E-01 0.22794222E-24 0.22388368E+01
0.25118864E+01 0.25260343E+01 0.40903479E+05 0.17985860E-01 0.54634232E-24 0.25288003E+01
0.28183829E+01 0.28379541E+01 0.36566563E+05 0.16905143E-01 0.13111063E-23 0.28191552E+01
0.31622776E+01 0.31886062E+01 0.32684419E+05 0.15467775E-01 0.31501866E-23 0.31098941E+01
0.35481338E+01 0.35827352E+01 0.29210018E+05 0.13671347E-01 0.75778646E-23 0.34010059E+01
0.39810717E+01 0.40256410E+01 0.26099133E+05 0.11646056E-01 0.18260534E-22 0.36926050E+01
0.44668359E+01 0.45232480E+01 0.23309083E+05 0.98011244E-02 0.44157480E-22 0.39850523E+01
0.50118723E+01 0.50821951E+01 0.20807902E+05 0.81720031E-02 0.10715831E-21 0.42783219E+01
0.56234132E+01 0.57099278E+01 0.18566947E+05 0.67642809E-02 0.26093858E-21 0.45723685E+01
0.63095734E+01 0.64147985E+01 0.16560209E+05 0.55824223E-02 0.63754466E-21 0.48671551E+01
0.70794578E+01 0.72061802E+01 0.14764112E+05 0.46300149E-02 0.15628539E-20 0.51626515E+01
0.79432823E+01 0.80945951E+01 0.13158255E+05 0.39000645E-02 0.38415101E-20 0.54587129E+01
0.89125093E+01 0.90918574E+01 0.11726307E+05 0.33555125E-02 0.94472258E-20 0.57548500E+01
0.10000000E+02 0.10211234E+02 0.10449888E+05 0.29924449E-02 0.23238324E-19 0.60509949E+01
0.11220184E+02 0.11467626E+02 0.93121951E+04 0.28105703E-02 0.57171973E-19 0.63471315E+01
0.12589254E+02 0.12877776E+02 0.82982088E+04 0.28095025E-02 0.14067761E-18 0.66432484E+01
0.14125375E+02 0.14460502E+02 0.73945148E+04 0.29888331E-02 0.34619537E-18 0.69393383E+01
0.15848931E+02 0.16236961E+02 0.65891379E+04 0.33481932E-02 0.85205488E-18 0.72353975E+01
0.17782794E+02 0.18230948E+02 0.58713919E+04 0.38873039E-02 0.20973176E-17 0.75314259E+01
0.19952623E+02 0.20469240E+02 0.52320100E+04 0.46168703E-02 0.51611147E-17 0.78273399E+01
0.22387211E+02 0.22981980E+02 0.46632906E+04 0.55768333E-02 0.12678553E-16 0.81228220E+01
0.25118864E+02 0.25803131E+02 0.41573862E+04 0.67696900E-02 0.31087365E-16 0.84178431E+01
0.28183829E+02 0.28970980E+02 0.37072463E+04 0.81943246E-02 0.76083801E-16 0.87124078E+01
0.31622776E+02 0.32528713E+02 0.33066224E+04 0.98499747E-02 0.18586736E-15 0.90065233E+01
0.35481338E+02 0.36525074E+02 0.29499749E+04 0.11736260E-01 0.45324052E-15 0.93001993E+01
0.39810717E+02 0.41015106E+02 0.26323937E+04 0.13853218E-01 0.11032719E-14 0.95934474E+01
0.44668359E+02 0.46061011E+02 0.23495255E+04 0.16201319E-01 0.26808987E-14 0.98862810E+01
0.50118723E+02 0.51733120E+02 0.20975108E+04 0.18781494E-01 0.65033713E-14 0.10178714E+02
0.56234132E+02 0.58111015E+02 0.18729259E+04 0.21595127E-01 0.15749807E-13 0.10470763E+02
0.63095734E+02 0.65284798E+02 0.16728049E+04 0.24611135E-01 0.38068532E-13 0.10762374E+02
0.70794578E+02 0.73356516E+02 0.14947444E+04 0.27663519E-01 0.91689324E-13 0.11053213E+02
0.79432823E+02 0.82441674E+02 0.13362696E+04 0.30730847E-01 0.22002213E-12 0.11343263E+02
0.89125093E+02 0.92671017E+02 0.11951554E+04 0.33814897E-01 0.52605071E-12 0.11632550E+02
0.10000000E+03 0.10419259E+03 0.10694427E+04 0.36917058E-01 0.12531530E-11 0.11921087E+02
0.11220184E+03 0.11717409E+03 0.95740463E+03 0.40038342E-01 0.29742747E-11 0.12208879E+02
0.12589254E+03 0.13180554E+03 0.85751642E+03 0.43179451E-01 0.70327651E-11 0.12495920E+02
0.14125375E+03 0.14830232E+03 0.76843064E+03 0.46340754E-01 0.16564925E-10 0.12782195E+02
0.15848931E+03 0.16690862E+03 0.68895526E+03 0.49522338E-01 0.38859971E-10 0.13067679E+02
0.17782794E+03 0.18790144E+03 0.61803459E+03 0.52723960E-01 0.90777206E-10 0.13352335E+02
0.19952623E+03 0.21159504E+03 0.55473202E+03 0.55958996E-01 0.21110999E-09 0.13636118E+02
0.22387211E+03 0.23834646E+03 0.49814471E+03 0.60289500E-01 0.48917514E-09 0.13919199E+02
0.25118864E+03 0.26856460E+03 0.44753469E+03 0.66384130E-01 0.11294488E-08 0.14201533E+02
0.28183829E+03 0.30272120E+03 0.40228589E+03 0.74246054E-01 0.25966798E-08 0.14482923E+02
0.31622776E+03 0.34136232E+03 0.36183598E+03 0.83879678E-01 0.59411479E-08 0.14763214E+02
0.35481338E+03 0.38512188E+03 0.32567528E+03 0.95295360E-01 0.13521032E-07 0.15042280E+02
0.39810717E+03 0.43473805E+03 0.29334419E+03 0.10851294E+00 0.30595159E-07 0.15320027E+02
0.44668359E+03 0.49107295E+03 0.26443104E+03 0.12356460E+00 0.68805407E-07 0.15596375E+02
0.50118723E+03 0.55513656E+03 0.23880331E+03 0.14051706E+00 0.15254536E-06 0.15869580E+02
0.56234132E+03 0.62811587E+03 0.21625253E+03 0.15935933E+00 0.33102322E-06 0.16138109E+02
0.63095734E+03 0.71140965E+03 0.19642343E+03 0.17971880E+00 0.70157909E-06 0.16401542E+02
0.70794578E+03 0.80665288E+03 0.17946000E+03 0.18801493E+00 0.14204893E-05 0.16655361E+02
0.79432823E+03 0.91563212E+03 0.16513346E+03 0.17901222E+00 0.27204039E-05 0.16898131E+02
0.89125093E+03 0.10401966E+04 0.15242320E+03 0.15851024E+00 0.50840056E-05 0.17137067E+02
0.10000000E+04 0.11822652E+04 0.14003586E+03 0.13168905E+00 0.98291190E-05 0.17384869E+02
0.11220184E+04 0.13438394E+04 0.12763384E+03 0.98321464E-01 0.19496266E-04 0.17639676E+02
0.12589254E+04 0.15269914E+04 0.11549022E+03 0.71621680E-01 0.30238924E-04 0.17842175E+02
0.14125375E+04 0.17340451E+04 0.10361675E+03 0.56806876E-01 0.32382147E-04 0.17964626E+02
0.15848931E+04 0.19677545E+04 0.92632218E+02 0.48292760E-01 0.32488668E-04 0.18072786E+02
0.17782794E+04 0.22313248E+04 0.82626967E+02 0.44558155E-01 0.32492703E-04 0.18179889E+02
0.19952623E+04 0.25284637E+04 0.73573982E+02 0.44714049E-01 0.32492845E-04 0.18286428E+02
0.22387211E+04 0.28634478E+04 0.65559982E+02 0.45221630E-01 0.32492849E-04 0.18392413E+02
0.25118864E+04 0.32411257E+04 0.58469510E+02 0.45788514E-01 0.32492850E-04 0.18497912E+02
0.28183829E+04 0.36669727E+04 0.52188484E+02 0.46409989E-01 0.32492850E-04 0.18602986E+02
0.31622776E+04 0.41471723E+04 0.46618425E+02 0.47081981E-01 0.32492850E-04 0.18707688E+02
0.35481338E+04 0.46887052E+04 0.41666251E+02 0.47070472E-01 0.32492850E-04 0.18812077E+02
0.39810717E+04 0.52994074E+04 0.37251132E+02 0.45650225E-01 0.32492850E-04 0.18916240E+02
0.44668359E+04 0.59880148E+04 0.33310662E+02 0.42828058E-01 0.32492850E-04 0.19020261E+02
0.50118723E+04 0.67642347E+04 0.29790944E+02 0.38604765E-01 0.32492850E-04 0.19124205E+02
0.56234132E+04 0.76388203E+04 0.26645126E+02 0.32979801E-01 0.32492850E-04 0.19228120E+02
0.63095734E+04 0.86236409E+04 0.23830657E+02 0.26083856E-01 0.32492850E-04 0.19332044E+02
0.70794578E+04 0.97317858E+04 0.21293725E+02 0.19575238E-01 0.32492850E-04 0.19435964E+02
0.79432823E+04 0.10977822E+05 0.19003000E+02 0.13991315E-01 0.32492850E-04 0.19539813E+02
0.89125093E+04 0.12378061E+05 0.16936078E+02 0.93657140E-02 0.32492850E-04 0.19643530E+02
0.10000000E+05 0.13950789E+05 0.15072647E+02 0.57262170E-02 0.32492850E-04 0.19747063E+02
0.11220184E+05 0.15716553E+05 0.13402361E+02 0.31291434E-02 0.32492850E-04 0.19850371E+02
0.12589254E+05 0.17698479E+05 0.11915593E+02 0.16156166E-02 0.32492850E-04 0.19953417E+02
0.14125375E+05 0.19922650E+05 0.10593586E+02 0.79820587E-03 0.32492850E-04 0.20056182E+02
0.15848931E+05 0.22418438E+05 0.94189693E+01 0.26123333E-03 0.32492850E-04 0.20158674E+02
0.17782794E+05 0.25218848E+05 0.83750725E+01 -0.11830551E-05 0.32492850E-04 0.20260909E+02
0.19952623E+05 0.28360966E+05 0.74471658E+01 0.56933914E-05 0.32492850E-04 0.20362901E+02
